BEGIN_SCAN_DATA
	FORMAT=CC-Export V1.9                  
	FILE_CREATION_DATE=31-Mar-2015 10:35:31
	LAST_MODIFIED=31-Mar-2015 10:35:31
	BEGIN_SCAN  1
		TASK_NAME=tba PDD Profiles
		PROGRAM=tbaScan
		MEAS_DATE=31-Mar-2015 10:30:29
		LINAC=MRL-U1
		MODALITY=X
		ISOCENTER=1435.00
		INPLANE_AXIS=Inplane
		CROSSPLANE_AXIS=Crossplane
		DEPTH_AXIS=Depth
		INPLANE_AXIS_DIR=GUN_TARGET
		CROSSPLANE_AXIS_DIR=LEFT_RIGHT
		DEPTH_AXIS_DIR=UP_DOWN
		ENERGY=6.00
		NOMINAL_DMAX=15.00
		SSD=1335.00
		SCD=450.00
		BLOCK=0
		WEDGE_ANGLE=0.00
		FIELD_INPLANE=200.00
		FIELD_CROSSPLANE=200.00
		FIELD_TYPE=RECTANGULAR
		GANTRY=0.00
		GANTRY_UPRIGHT_POSITION=0
		GANTRY_ROTATION=CW
		COLL_ANGLE=0.00
		COLL_OFFSET_INPLANE=0.00
		COLL_OFFSET_CROSSPLANE=0.00
		SCAN_DEVICE=MP3
		SCAN_DEVICE_SETUP=BARA_LEFT_RIGHT
		ELECTROMETER=TANDEM
		RANGE_FIELD=MEDIUM
		RANGE_REFERENCE=AUTO
		DETECTOR=DOSIMETRY_DIODE
		DETECTOR_RADIUS=0.00
		DETECTOR_NAME=PTW 60016 Diode P
		DETECTOR_SN=0000
		DETECTOR_CALIBRATION=5700000.00
		DETECTOR_IS_CALIBRATED=0
		DETECTOR_REFERENCE=THIMBLE_CHAMBER
		DETECTOR_REFERENCE_SUBCODE=SEMIFLEX
		DETECTOR_REFERENCE_RADIUS=2.75
		DETECTOR_REFERENCE_NAME=PTW 31010 Semiflex
		DETECTOR_REFERENCE_SN=0000
		DETECTOR_REFERENCE_IS_CALIBRATED=0
		DETECTOR_REFERENCE_CALIBRATION=300000000.00
		FILTER=FFF
		REF_FIELD_DEPTH=100.00
		REF_FIELD_DEFINED=DEPTH
		REF_FIELD_INPLANE=100.00
		REF_FIELD_CROSSPLANE=100.00
		REF_SCAN_POSITIONS=-80.00;-75.00;-70.00;-65.00;-60.00;-59.00;-58.00;-57.00;-56.00;-55.00;-54.00;-53.00;-52.00;-51.00;-50.00;-49.00;-48.00;-47.00;-46.00;-45.00;-44.00;-43.00;-42.00;-41.00;-40.00;-35.00;-30.00;-25.00;-20.00;-15.00;-10.00;-5.00;-4.00;-3.00;-2.00;-1.00;0.00;1.00;2.00;3.00;4.00;5.00;10.00;15.00;20.00;25.00;30.00;35.00;40.00;41.00;42.00;43.00;44.00;45.00;46.00;47.00;48.00;49.00;50.00;51.00;52.00;53.00;54.00;55.00;56.00;57.00;58.00;59.00;60.00;65.00;70.00;75.00;80.00;
		REF_OVERSCAN_FACTOR=1.00
		SCAN_CURVETYPE=INPLANE_PROFILE
		SCAN_DEPTH=0.00
		SCAN_OFFAXIS_INPLANE=0.00
		SCAN_OFFAXIS_CROSSPLANE=0.00
		SCAN_ANGLE=0.00
		SCAN_DIAGONAL=NOT_DIAGONAL
		SCAN_DIRECTION=POSITIVE
		MEAS_MEDIUM=WATER
		MEAS_PRESET=REFERENCE_DOSEMETER
		MEAS_TIME=0.400
		MEAS_UNIT=A.U.
		SCAN_SPEEDS=999.00; 5.00;
		DELAY_TIMES=150.00; 0.200;
		PRESSURE=1013.25
		TEMPERATURE=20.00
		NORM_TEMPERATURE=20.00
		CORRECTION_FACTOR=1.0000
		EXPECTED_MAX_DOSE_RATE=5.00
		BEGIN_DATA
			-120.94		6.6367E-03		4.7718E+00
			-116.29		7.5168E-03		4.7682E+00
			-111.64		8.7394E-03		4.7664E+00
			-106.99		10.769E-03		4.7700E+00
			-102.33		19.344E-03		4.7664E+00
			-101.40		24.529E-03		4.7628E+00
			-100.47		31.375E-03		4.7646E+00
			-99.54		39.314E-03		4.7646E+00
			-98.61		46.304E-03		4.7610E+00
			-97.68		50.798E-03		4.7646E+00
			-96.75		53.653E-03		4.7610E+00
			-95.82		55.252E-03		4.7556E+00
			-94.89		56.454E-03		4.7592E+00
			-93.96		57.302E-03		4.7538E+00
			-93.03		58.072E-03		4.7538E+00
			-92.10		58.640E-03		4.7538E+00
			-91.17		59.008E-03		4.7520E+00
			-90.24		59.563E-03		4.7502E+00
			-89.31		59.972E-03		4.7520E+00
			-88.38		60.252E-03		4.7538E+00
			-87.45		60.601E-03		4.7484E+00
			-86.52		60.960E-03		4.7502E+00
			-85.59		61.329E-03		4.7484E+00
			-84.66		61.615E-03		4.7502E+00
			-83.73		61.827E-03		4.7466E+00
			-79.08		63.240E-03		4.7466E+00
			-74.43		64.475E-03		4.7448E+00
			-69.77		65.819E-03		4.7466E+00
			-65.12		66.875E-03		4.7484E+00
			-60.47		68.220E-03		4.7430E+00
			-55.82		69.337E-03		4.7430E+00
			-51.17		70.711E-03		4.7394E+00
			-50.24		70.532E-03		4.7412E+00
			-49.31		70.960E-03		4.7430E+00
			-48.38		71.099E-03		4.7448E+00
			-47.45		71.194E-03		4.7394E+00
			-46.52		71.118E-03		4.7430E+00
			-45.59		71.490E-03		4.7394E+00
			-44.66		71.661E-03		4.7448E+00
			-43.72		71.728E-03		4.7394E+00
			-42.79		72.096E-03		4.7394E+00
			-41.86		72.261E-03		4.7376E+00
			-40.93		72.305E-03		4.7394E+00
			-40.00		72.378E-03		4.7394E+00
			-39.07		72.849E-03		4.7322E+00
			-38.14		72.794E-03		4.7358E+00
			-37.21		72.838E-03		4.7376E+00
			-36.28		73.127E-03		4.7376E+00
			-35.35		73.516E-03		4.7358E+00
			-34.42		73.616E-03		4.7340E+00
			-33.49		73.688E-03		4.7340E+00
			-32.56		73.889E-03		4.7304E+00
			-31.63		74.033E-03		4.7304E+00
			-30.70		74.250E-03		4.7304E+00
			-29.77		74.467E-03		4.7304E+00
			-28.84		74.338E-03		4.7340E+00
			-27.91		74.527E-03		4.7358E+00
			-26.98		74.785E-03		4.7286E+00
			-26.05		74.916E-03		4.7340E+00
			-25.12		74.945E-03		4.7322E+00
			-24.19		75.054E-03		4.6980E+00
			-23.26		75.162E-03		4.7322E+00
			-22.33		75.147E-03		4.7286E+00
			-21.40		75.422E-03		4.7340E+00
			-20.47		75.204E-03		4.7250E+00
			-19.54		75.534E-03		4.6998E+00
			-18.61		75.508E-03		4.7286E+00
			-17.68		75.754E-03		4.7268E+00
			-16.75		75.870E-03		4.7286E+00
			-15.82		76.072E-03		4.7250E+00
			-14.89		75.870E-03		4.7286E+00
			-13.95		75.682E-03		4.7268E+00
			-13.02		76.174E-03		4.7232E+00
			-12.09		76.058E-03		4.7214E+00
			-11.16		76.043E-03		4.7178E+00
			-10.23		76.217E-03		4.7250E+00
			-9.30		76.159E-03		4.7196E+00
			-8.37		76.275E-03		4.7214E+00
			-7.44		76.304E-03		4.7196E+00
			-6.51		76.319E-03		4.7232E+00
			-5.58		76.203E-03		4.7214E+00
			-4.65		76.463E-03		4.7232E+00
			-3.72		76.667E-03		4.7196E+00
			-2.79		76.435E-03		4.7160E+00
			-1.86		76.420E-03		4.7214E+00
			-0.93		76.420E-03		4.7214E+00
			0.00		76.682E-03		4.7142E+00
			0.93		76.463E-03		4.7232E+00
			1.86		76.449E-03		4.7196E+00
			2.79		76.478E-03		4.7178E+00
			3.72		76.522E-03		4.7196E+00
			4.65		76.551E-03		4.7178E+00
			5.58		76.290E-03		4.7160E+00
			6.51		76.493E-03		4.7214E+00
			7.44		76.594E-03		4.7196E+00
			8.37		76.478E-03		4.7178E+00
			9.30		76.319E-03		4.7232E+00
			10.23		76.392E-03		4.7142E+00
			11.16		76.188E-03		4.7178E+00
			12.09		76.232E-03		4.7196E+00
			13.02		76.159E-03		4.7196E+00
			13.95		76.000E-03		4.7160E+00
			14.89		76.000E-03		4.7160E+00
			15.82		75.855E-03		4.7160E+00
			16.75		75.565E-03		4.7160E+00
			17.68		75.521E-03		4.7142E+00
			18.61		75.435E-03		4.7196E+00
			19.54		75.290E-03		4.7196E+00
			20.47		75.000E-03		4.7196E+00
			21.40		75.029E-03		4.7178E+00
			22.33		75.029E-03		4.7178E+00
			23.26		74.809E-03		4.7088E+00
			24.19		74.897E-03		4.7124E+00
			25.12		74.622E-03		4.7160E+00
			26.05		74.534E-03		4.7124E+00
			26.98		74.304E-03		4.7178E+00
			27.91		74.260E-03		4.7160E+00
			28.84		74.260E-03		4.7160E+00
			29.77		74.042E-03		4.7160E+00
			30.70		73.824E-03		4.7160E+00
			31.63		73.623E-03		4.7196E+00
			32.56		73.445E-03		4.7124E+00
			33.49		73.591E-03		4.7124E+00
			34.42		73.228E-03		4.7124E+00
			35.35		73.417E-03		4.7142E+00
			36.28		72.910E-03		4.7142E+00
			37.21		72.592E-03		4.7160E+00
			38.14		72.737E-03		4.7160E+00
			39.07		72.496E-03		4.7142E+00
			40.00		72.130E-03		4.7106E+00
			40.93		71.958E-03		4.7124E+00
			41.86		71.876E-03		4.7106E+00
			42.79		71.564E-03		4.7106E+00
			43.72		71.557E-03		4.7106E+00
			44.66		71.094E-03		4.7124E+00
			45.59		70.809E-03		4.7106E+00
			46.52		70.958E-03		4.6872E+00
			47.45		70.683E-03		4.7088E+00
			48.38		70.548E-03		4.7106E+00
			49.31		70.444E-03		4.7088E+00
			50.24		69.986E-03		4.7088E+00
			51.17		69.836E-03		4.7106E+00
			55.82		69.006E-03		4.7088E+00
			60.47		67.624E-03		4.7160E+00
			65.12		66.685E-03		4.7070E+00
			69.77		65.458E-03		4.7106E+00
			74.43		64.209E-03		4.7106E+00
			79.08		62.891E-03		4.7142E+00
			83.73		61.378E-03		4.7106E+00
			84.66		61.115E-03		4.7124E+00
			85.59		60.909E-03		4.7070E+00
			86.52		60.303E-03		4.6908E+00
			87.45		60.146E-03		4.7070E+00
			88.38		59.767E-03		4.7088E+00
			89.31		59.493E-03		4.7052E+00
			90.24		59.322E-03		4.7124E+00
			91.17		58.597E-03		4.7124E+00
			92.10		58.031E-03		4.7124E+00
			93.03		57.596E-03		4.7088E+00
			93.96		56.891E-03		4.7124E+00
			94.89		55.729E-03		4.7088E+00
			95.82		54.364E-03		4.7088E+00
			96.75		52.257E-03		4.7088E+00
			97.68		48.353E-03		4.7106E+00
			98.61		42.661E-03		4.7106E+00
			99.54		35.318E-03		4.7052E+00
			100.47		27.632E-03		4.7106E+00
			101.40		21.366E-03		4.7124E+00
			102.33		17.371E-03		4.7034E+00
			106.99		10.440E-03		4.7106E+00
			111.64		8.6106E-03		4.7106E+00
			116.29		7.5275E-03		4.7160E+00
			120.94		6.6043E-03		4.7124E+00
		END_DATA
	END_SCAN  1
END_SCAN_DATA
