BEGIN_SCAN_DATA
	FORMAT=CC-Export V1.9                  
	FILE_CREATION_DATE=18-Mar-2015 14:40:37
	LAST_MODIFIED=18-Mar-2015 14:40:37
	BEGIN_SCAN  1
		TASK_NAME=tba PDD Profiles
		PROGRAM=tbaScan
		MEAS_DATE=18-Mar-2015 14:33:35
		LINAC=UMC-U03
		MODALITY=X
		ISOCENTER=1000.00
		INPLANE_AXIS=Inplane
		CROSSPLANE_AXIS=Crossplane
		DEPTH_AXIS=Depth
		INPLANE_AXIS_DIR=GUN_TARGET
		CROSSPLANE_AXIS_DIR=LEFT_RIGHT
		DEPTH_AXIS_DIR=UP_DOWN
		ENERGY=6.00
		NOMINAL_DMAX=15.00
		SSD=900.00
		SCD=450.00
		BLOCK=0
		WEDGE_ANGLE=0.00
		FIELD_INPLANE=200.00
		FIELD_CROSSPLANE=400.00
		FIELD_TYPE=RECTANGULAR
		GANTRY=0.00
		GANTRY_UPRIGHT_POSITION=0
		GANTRY_ROTATION=CW
		COLL_ANGLE=0.00
		COLL_OFFSET_INPLANE=0.00
		COLL_OFFSET_CROSSPLANE=0.00
		SCAN_DEVICE=MP3
		SCAN_DEVICE_SETUP=BARA_LEFT_RIGHT
		ELECTROMETER=TANDEM
		RANGE_FIELD=AUTO
		RANGE_REFERENCE=AUTO
		DETECTOR=THIMBLE_CHAMBER
		DETECTOR_SUBCODE=SEMIFLEX
		DETECTOR_RADIUS=2.75
		DETECTOR_NAME=PTW 31010 Semiflex
		DETECTOR_SN=0000
		DETECTOR_CALIBRATION=300000000.00
		DETECTOR_IS_CALIBRATED=0
		DETECTOR_REFERENCE=THIMBLE_CHAMBER
		DETECTOR_REFERENCE_SUBCODE=SEMIFLEX
		DETECTOR_REFERENCE_RADIUS=2.75
		DETECTOR_REFERENCE_NAME=PTW 31010 Semiflex
		DETECTOR_REFERENCE_SN=0000
		DETECTOR_REFERENCE_IS_CALIBRATED=0
		DETECTOR_REFERENCE_CALIBRATION=300000000.00
		DETECTOR_HV=400.0
		DETECTOR_REFERENCE_HV=400.0
		FILTER=FF
		REF_FIELD_DEPTH=100.00
		REF_FIELD_DEFINED=DEPTH
		REF_FIELD_INPLANE=100.00
		REF_FIELD_CROSSPLANE=100.00
		REF_SCAN_POSITIONS=-80.00;-75.00;-70.00;-65.00;-60.00;-59.00;-58.00;-57.00;-56.00;-55.00;-54.00;-53.00;-52.00;-51.00;-50.00;-49.00;-48.00;-47.00;-46.00;-45.00;-44.00;-43.00;-42.00;-41.00;-40.00;-35.00;-30.00;-25.00;-20.00;-15.00;-10.00;-5.00;-4.00;-3.00;-2.00;-1.00;0.00;1.00;2.00;3.00;4.00;5.00;10.00;15.00;20.00;25.00;30.00;35.00;40.00;41.00;42.00;43.00;44.00;45.00;46.00;47.00;48.00;49.00;50.00;51.00;52.00;53.00;54.00;55.00;56.00;57.00;58.00;59.00;60.00;65.00;70.00;75.00;80.00;
		REF_OVERSCAN_FACTOR=1.00
		SCAN_CURVETYPE=CROSSPLANE_PROFILE
		SCAN_DEPTH=100.00
		SCAN_OFFAXIS_INPLANE=0.00
		SCAN_OFFAXIS_CROSSPLANE=0.00
		SCAN_ANGLE=-26.60
		SCAN_DIAGONAL=NOT_DIAGONAL
		SCAN_DIRECTION=POSITIVE
		MEAS_MEDIUM=WATER
		MEAS_PRESET=REFERENCE_DOSEMETER
		MEAS_TIME=0.400
		MEAS_UNIT=A.U.
		SCAN_SPEEDS=50.00; 5.00;150.00; 5.00;999.00; 5.00;
		DELAY_TIMES=50.00; 0.500;150.00; 0.200;
		PRESSURE=1013.25
		TEMPERATURE=20.00
		NORM_TEMPERATURE=20.00
		CORRECTION_FACTOR=1.0000
		EXPECTED_MAX_DOSE_RATE=8.50
		BEGIN_DATA
			-74.93		1.6444E+00		3.4218E+00
			-73.81		1.6563E+00		3.4200E+00
			-72.69		1.6658E+00		3.4200E+00
			-71.58		1.6774E+00		3.4200E+00
			-70.46		1.6881E+00		3.4218E+00
			-69.34		1.7005E+00		3.4200E+00
			-68.22		1.7110E+00		3.4254E+00
			-67.10		1.7266E+00		3.4164E+00
			-65.98		1.7349E+00		3.4218E+00
			-64.87		1.7471E+00		3.4236E+00
			-63.75		1.7605E+00		3.4200E+00
			-62.63		1.7745E+00		3.4164E+00
			-61.51		1.7877E+00		3.4164E+00
			-60.39		1.7988E+00		3.4182E+00
			-59.27		1.8125E+00		3.4182E+00
			-58.16		1.8217E+00		3.4218E+00
			-57.04		1.8353E+00		3.4218E+00
			-55.92		1.8486E+00		3.4236E+00
			-54.80		1.8621E+00		3.4200E+00
			-53.68		1.8774E+00		3.4200E+00
			-52.56		1.8905E+00		3.4200E+00
			-51.45		1.9042E+00		3.4200E+00
			-50.33		1.9149E+00		3.4254E+00
			-49.21		1.9291E+00		3.4254E+00
			-48.09		1.9432E+00		3.4236E+00
			-46.97		1.9590E+00		3.4218E+00
			-45.85		1.9716E+00		3.4218E+00
			-44.74		1.9868E+00		3.4218E+00
			-43.62		2.0000E+00		3.4200E+00
			-42.50		2.0163E+00		3.4200E+00
			-41.38		2.0311E+00		3.4164E+00
			-40.26		2.0421E+00		3.4218E+00
			-39.14		2.0574E+00		3.4200E+00
			-38.02		2.0705E+00		3.4218E+00
			-36.91		2.0874E+00		3.4200E+00
			-35.79		2.0994E+00		3.4236E+00
			-34.67		2.1158E+00		3.4200E+00
			-33.55		2.1321E+00		3.4200E+00
			-32.43		2.1452E+00		3.4218E+00
			-31.31		2.1599E+00		3.4218E+00
			-30.20		2.1780E+00		3.4182E+00
			-29.08		2.1896E+00		3.4182E+00
			-27.96		2.2053E+00		3.4200E+00
			-26.84		2.2212E+00		3.4182E+00
			-25.72		2.2320E+00		3.4218E+00
			-24.60		2.2492E+00		3.4164E+00
			-23.49		2.2605E+00		3.4200E+00
			-22.37		2.2747E+00		3.4200E+00
			-21.25		2.2860E+00		3.4236E+00
			-20.13		2.3011E+00		3.4200E+00
			-19.01		2.3147E+00		3.4200E+00
			-17.89		2.3268E+00		3.4200E+00
			-16.78		2.3397E+00		3.4182E+00
			-15.66		2.3488E+00		3.4218E+00
			-14.54		2.3628E+00		3.4182E+00
			-13.42		2.3725E+00		3.4164E+00
			-12.30		2.3824E+00		3.4218E+00
			-11.18		2.3893E+00		3.4218E+00
			-10.07		2.4000E+00		3.4200E+00
			-8.95		2.4084E+00		3.4200E+00
			-7.83		2.4153E+00		3.4200E+00
			-6.71		2.4205E+00		3.4200E+00
			-5.59		2.4248E+00		3.4236E+00
			-4.47		2.4305E+00		3.4200E+00
			-3.36		2.4340E+00		3.4218E+00
			-2.24		2.4377E+00		3.4218E+00
			-1.12		2.4395E+00		3.4200E+00
			0.00		2.4400E+00		3.4200E+00
			1.12		2.4429E+00		3.4182E+00
			2.24		2.4423E+00		3.4182E+00
			3.36		2.4379E+00		3.4200E+00
			4.47		2.4386E+00		3.4146E+00
			5.59		2.4329E+00		3.4182E+00
			6.71		2.4281E+00		3.4182E+00
			7.83		2.4178E+00		3.4254E+00
			8.95		2.4138E+00		3.4236E+00
			10.07		2.4107E+00		3.4182E+00
			11.18		2.4018E+00		3.4182E+00
			12.30		2.3934E+00		3.4182E+00
			13.42		2.3828E+00		3.4182E+00
			14.54		2.3726E+00		3.4200E+00
			15.66		2.3611E+00		3.4200E+00
			16.78		2.3505E+00		3.4200E+00
			17.89		2.3397E+00		3.4182E+00
			19.01		2.3270E+00		3.4182E+00
			20.13		2.3130E+00		3.4218E+00
			21.25		2.3004E+00		3.4218E+00
			22.37		2.2902E+00		3.4182E+00
			23.49		2.2759E+00		3.4182E+00
			24.60		2.2621E+00		3.4200E+00
			25.72		2.2467E+00		3.4218E+00
			26.84		2.2345E+00		3.4164E+00
			27.96		2.2189E+00		3.4200E+00
			29.08		2.2052E+00		3.4218E+00
			30.20		2.1910E+00		3.4218E+00
			31.31		2.1774E+00		3.4200E+00
			32.43		2.1627E+00		3.4182E+00
			33.55		2.1435E+00		3.4236E+00
			34.67		2.1338E+00		3.4164E+00
			35.79		2.1163E+00		3.4200E+00
			36.91		2.1032E+00		3.4200E+00
			38.02		2.0868E+00		3.4218E+00
			39.14		2.0716E+00		3.4200E+00
			40.26		2.0563E+00		3.4200E+00
			41.38		2.0421E+00		3.4218E+00
			42.50		2.0263E+00		3.4218E+00
			43.62		2.0137E+00		3.4218E+00
			44.74		1.9989E+00		3.4218E+00
			45.85		1.9853E+00		3.4218E+00
			46.97		1.9716E+00		3.4218E+00
			48.09		1.9579E+00		3.4182E+00
			49.21		1.9427E+00		3.4218E+00
			50.33		1.9300E+00		3.4200E+00
			51.45		1.9148E+00		3.4218E+00
			52.56		1.9032E+00		3.4200E+00
			53.68		1.8895E+00		3.4200E+00
			54.80		1.8778E+00		3.4182E+00
			55.92		1.8631E+00		3.4182E+00
			57.04		1.8504E+00		3.4182E+00
			58.16		1.8373E+00		3.4182E+00
			59.27		1.8221E+00		3.4200E+00
			60.39		1.8101E+00		3.4218E+00
			61.51		1.7969E+00		3.4218E+00
			62.63		1.7849E+00		3.4218E+00
			63.75		1.7736E+00		3.4182E+00
			64.87		1.7587E+00		3.4236E+00
			65.98		1.7475E+00		3.4218E+00
			67.10		1.7359E+00		3.4218E+00
			68.22		1.7223E+00		3.4218E+00
			69.34		1.7096E+00		3.4218E+00
			70.46		1.7000E+00		3.4200E+00
			71.58		1.6865E+00		3.4218E+00
			72.69		1.6760E+00		3.4218E+00
			73.81		1.6647E+00		3.4200E+00
			74.93		1.6512E+00		3.4218E+00
			76.05		1.6416E+00		3.4200E+00
			77.17		1.6305E+00		3.4200E+00
			78.29		1.6181E+00		3.4218E+00
			79.40		1.6076E+00		3.4218E+00
			80.52		1.5979E+00		3.4200E+00
			81.64		1.5843E+00		3.4254E+00
			82.76		1.5749E+00		3.4254E+00
			83.88		1.5631E+00		3.4236E+00
			85.00		1.5558E+00		3.4200E+00
			86.11		1.5466E+00		3.4182E+00
			87.23		1.5331E+00		3.4236E+00
			88.35		1.5239E+00		3.4218E+00
			89.47		1.5147E+00		3.4200E+00
			90.59		1.5042E+00		3.4236E+00
			91.71		1.4961E+00		3.4182E+00
			92.83		1.4858E+00		3.4200E+00
			93.94		1.4771E+00		3.4182E+00
			95.06		1.4653E+00		3.4236E+00
			96.18		1.4548E+00		3.4236E+00
			97.30		1.4458E+00		3.4236E+00
			98.42		1.4376E+00		3.4182E+00
			99.54		1.4256E+00		3.4254E+00
			100.65		1.4167E+00		3.4254E+00
			101.77		1.4100E+00		3.4200E+00
			102.89		1.3985E+00		3.4236E+00
			104.01		1.3924E+00		3.4218E+00
			105.13		1.3832E+00		3.4200E+00
			106.25		1.3745E+00		3.4218E+00
			107.36		1.3658E+00		3.4200E+00
			108.48		1.3556E+00		3.4218E+00
			109.60		1.3482E+00		3.4218E+00
			110.72		1.3403E+00		3.4218E+00
			111.84		1.3314E+00		3.4218E+00
			112.96		1.3225E+00		3.4218E+00
			114.07		1.3146E+00		3.4218E+00
			115.19		1.3056E+00		3.4218E+00
			116.31		1.2976E+00		3.4236E+00
			117.43		1.2916E+00		3.4200E+00
			118.55		1.2816E+00		3.4200E+00
			119.67		1.2739E+00		3.4236E+00
			120.78		1.2674E+00		3.4200E+00
			121.90		1.2584E+00		3.4200E+00
			123.02		1.2511E+00		3.4200E+00
			124.14		1.2412E+00		3.4254E+00
			125.26		1.2329E+00		3.4236E+00
			126.38		1.2268E+00		3.4200E+00
			127.49		1.2198E+00		3.4236E+00
			128.61		1.2126E+00		3.4200E+00
			129.73		1.2029E+00		3.4236E+00
			130.85		1.1972E+00		3.4236E+00
			131.97		1.1877E+00		3.4236E+00
			133.09		1.1831E+00		3.4218E+00
			134.21		1.1757E+00		3.4218E+00
			135.32		1.1673E+00		3.4218E+00
			136.44		1.1609E+00		3.4236E+00
			137.56		1.1534E+00		3.4254E+00
			138.68		1.1462E+00		3.4218E+00
			139.80		1.1387E+00		3.4272E+00
			140.92		1.1331E+00		3.4218E+00
			142.03		1.1257E+00		3.4218E+00
			143.15		1.1195E+00		3.4200E+00
			144.27		1.1115E+00		3.4218E+00
			145.39		1.1052E+00		3.4218E+00
			146.51		1.0995E+00		3.4182E+00
			147.63		1.0921E+00		3.4218E+00
			148.74		1.0836E+00		3.4236E+00
			149.86		1.0784E+00		3.4200E+00
			150.98		1.0721E+00		3.4218E+00
			152.10		1.0642E+00		3.4218E+00
			153.22		1.0578E+00		3.4254E+00
			154.34		1.0516E+00		3.4218E+00
			155.45		1.0452E+00		3.4218E+00
			156.57		1.0368E+00		3.4254E+00
			157.69		1.0315E+00		3.4254E+00
			158.81		1.0258E+00		3.4236E+00
			159.93		1.0205E+00		3.4218E+00
			161.05		1.0142E+00		3.4254E+00
			162.16		1.0068E+00		3.4236E+00
			163.28		1.0021E+00		3.4218E+00
			164.40		995.27E-03		3.4218E+00
			165.52		989.48E-03		3.4236E+00
			166.64		983.70E-03		3.4236E+00
			167.76		977.37E-03		3.4200E+00
			168.87		970.54E-03		3.4218E+00
			169.99		966.30E-03		3.4182E+00
			171.11		959.03E-03		3.4272E+00
			172.23		953.73E-03		3.4236E+00
			173.35		947.42E-03		3.4236E+00
			178.94		918.42E-03		3.4200E+00
			184.53		888.48E-03		3.4218E+00
			190.12		856.92E-03		3.4218E+00
			195.72		824.12E-03		3.4182E+00
			201.31		789.47E-03		3.4200E+00
			206.90		746.19E-03		3.4254E+00
			212.49		685.07E-03		3.4236E+00
			213.61		668.24E-03		3.4236E+00
			214.73		650.03E-03		3.4254E+00
			215.85		628.09E-03		3.4218E+00
			216.96		602.84E-03		3.4218E+00
			218.08		571.73E-03		3.4254E+00
			219.20		536.80E-03		3.4236E+00
			220.32		494.17E-03		3.4272E+00
			221.44		443.94E-03		3.4290E+00
			222.56		387.85E-03		3.4236E+00
			223.68		327.66E-03		3.4236E+00
			224.79		267.61E-03		3.4236E+00
			225.91		212.62E-03		3.4236E+00
			227.03		166.35E-03		3.4236E+00
			228.15		132.44E-03		3.4236E+00
			229.27		109.21E-03		3.4218E+00
			230.39		93.270E-03		3.4236E+00
			231.50		82.545E-03		3.4236E+00
			232.62		74.869E-03		3.4236E+00
			233.74		69.211E-03		3.4200E+00
			234.86		64.808E-03		3.4218E+00
			240.45		51.078E-03		3.4218E+00
			246.04		43.368E-03		3.4200E+00
			251.63		38.138E-03		3.4218E+00
			257.23		33.789E-03		3.4254E+00
		END_DATA
	END_SCAN  1
END_SCAN_DATA
