BEGIN_SCAN_DATA
	FORMAT=CC-Export V1.9                  
	FILE_CREATION_DATE=18-Mar-2015 14:08:37
	LAST_MODIFIED=18-Mar-2015 14:08:37
	BEGIN_SCAN  1
		TASK_NAME=tba PDD Profiles
		PROGRAM=tbaScan
		MEAS_DATE=18-Mar-2015 14:01:12
		LINAC=UMC-U03
		MODALITY=X
		ISOCENTER=1000.00
		INPLANE_AXIS=Inplane
		CROSSPLANE_AXIS=Crossplane
		DEPTH_AXIS=Depth
		INPLANE_AXIS_DIR=GUN_TARGET
		CROSSPLANE_AXIS_DIR=LEFT_RIGHT
		DEPTH_AXIS_DIR=UP_DOWN
		ENERGY=6.00
		NOMINAL_DMAX=15.00
		SSD=900.00
		SCD=450.00
		BLOCK=0
		WEDGE_ANGLE=0.00
		FIELD_INPLANE=200.00
		FIELD_CROSSPLANE=400.00
		FIELD_TYPE=RECTANGULAR
		GANTRY=0.00
		GANTRY_UPRIGHT_POSITION=0
		GANTRY_ROTATION=CW
		COLL_ANGLE=0.00
		COLL_OFFSET_INPLANE=0.00
		COLL_OFFSET_CROSSPLANE=0.00
		SCAN_DEVICE=MP3
		SCAN_DEVICE_SETUP=BARA_LEFT_RIGHT
		ELECTROMETER=TANDEM
		RANGE_FIELD=AUTO
		RANGE_REFERENCE=AUTO
		DETECTOR=THIMBLE_CHAMBER
		DETECTOR_SUBCODE=SEMIFLEX
		DETECTOR_RADIUS=2.75
		DETECTOR_NAME=PTW 31010 Semiflex
		DETECTOR_SN=0000
		DETECTOR_CALIBRATION=300000000.00
		DETECTOR_IS_CALIBRATED=0
		DETECTOR_REFERENCE=THIMBLE_CHAMBER
		DETECTOR_REFERENCE_SUBCODE=SEMIFLEX
		DETECTOR_REFERENCE_RADIUS=2.75
		DETECTOR_REFERENCE_NAME=PTW 31010 Semiflex
		DETECTOR_REFERENCE_SN=0000
		DETECTOR_REFERENCE_IS_CALIBRATED=0
		DETECTOR_REFERENCE_CALIBRATION=300000000.00
		DETECTOR_HV=400.0
		DETECTOR_REFERENCE_HV=400.0
		FILTER=FF
		REF_FIELD_DEPTH=100.00
		REF_FIELD_DEFINED=DEPTH
		REF_FIELD_INPLANE=100.00
		REF_FIELD_CROSSPLANE=100.00
		REF_SCAN_POSITIONS=-80.00;-75.00;-70.00;-65.00;-60.00;-59.00;-58.00;-57.00;-56.00;-55.00;-54.00;-53.00;-52.00;-51.00;-50.00;-49.00;-48.00;-47.00;-46.00;-45.00;-44.00;-43.00;-42.00;-41.00;-40.00;-35.00;-30.00;-25.00;-20.00;-15.00;-10.00;-5.00;-4.00;-3.00;-2.00;-1.00;0.00;1.00;2.00;3.00;4.00;5.00;10.00;15.00;20.00;25.00;30.00;35.00;40.00;41.00;42.00;43.00;44.00;45.00;46.00;47.00;48.00;49.00;50.00;51.00;52.00;53.00;54.00;55.00;56.00;57.00;58.00;59.00;60.00;65.00;70.00;75.00;80.00;
		REF_OVERSCAN_FACTOR=1.00
		SCAN_CURVETYPE=CROSSPLANE_PROFILE
		SCAN_DEPTH=100.00
		SCAN_OFFAXIS_INPLANE=0.00
		SCAN_OFFAXIS_CROSSPLANE=0.00
		SCAN_ANGLE=-26.60
		SCAN_DIAGONAL=NOT_DIAGONAL
		SCAN_DIRECTION=POSITIVE
		MEAS_MEDIUM=WATER
		MEAS_PRESET=REFERENCE_DOSEMETER
		MEAS_TIME=0.400
		MEAS_UNIT=A.U.
		SCAN_SPEEDS=50.00; 5.00;150.00; 5.00;999.00; 5.00;
		DELAY_TIMES=50.00; 0.500;150.00; 0.200;
		PRESSURE=1013.25
		TEMPERATURE=20.00
		NORM_TEMPERATURE=20.00
		CORRECTION_FACTOR=1.0000
		EXPECTED_MAX_DOSE_RATE=8.50
		BEGIN_DATA
			-257.23		32.263E-03		3.4200E+00
			-251.63		36.153E-03		3.4254E+00
			-246.04		41.640E-03		3.4236E+00
			-240.45		49.078E-03		3.4182E+00
			-234.86		61.579E-03		3.4200E+00
			-233.74		65.825E-03		3.4236E+00
			-232.62		71.158E-03		3.4200E+00
			-231.50		78.087E-03		3.4254E+00
			-230.39		87.638E-03		3.4218E+00
			-229.27		101.16E-03		3.4218E+00
			-228.15		121.05E-03		3.4200E+00
			-227.03		149.21E-03		3.4200E+00
			-225.91		187.26E-03		3.4182E+00
			-224.79		234.07E-03		3.4182E+00
			-223.68		287.68E-03		3.4182E+00
			-222.56		346.26E-03		3.4200E+00
			-221.44		402.63E-03		3.4164E+00
			-220.32		453.55E-03		3.4218E+00
			-219.20		499.32E-03		3.4254E+00
			-218.08		539.67E-03		3.4254E+00
			-216.96		576.54E-03		3.4218E+00
			-215.85		606.41E-03		3.4254E+00
			-214.73		631.97E-03		3.4236E+00
			-213.61		652.63E-03		3.4200E+00
			-212.49		669.65E-03		3.4218E+00
			-206.90		733.54E-03		3.4182E+00
			-201.31		776.67E-03		3.4254E+00
			-195.72		813.26E-03		3.4218E+00
			-190.12		847.37E-03		3.4200E+00
			-184.53		878.48E-03		3.4218E+00
			-178.94		909.95E-03		3.4182E+00
			-173.35		937.99E-03		3.4254E+00
			-172.23		945.79E-03		3.4200E+00
			-171.11		951.58E-03		3.4200E+00
			-169.99		957.41E-03		3.4236E+00
			-168.87		963.68E-03		3.4200E+00
			-167.76		969.51E-03		3.4236E+00
			-166.64		975.29E-03		3.4236E+00
			-165.52		982.11E-03		3.4200E+00
			-164.40		987.91E-03		3.4236E+00
			-163.28		994.22E-03		3.4236E+00
			-162.16		1.0000E+00		3.4236E+00
			-161.05		1.0074E+00		3.4218E+00
			-159.93		1.0121E+00		3.4218E+00
			-158.81		1.0189E+00		3.4218E+00
			-157.69		1.0258E+00		3.4218E+00
			-156.57		1.0321E+00		3.4200E+00
			-155.45		1.0389E+00		3.4200E+00
			-154.34		1.0453E+00		3.4182E+00
			-153.22		1.0505E+00		3.4218E+00
			-152.10		1.0584E+00		3.4200E+00
			-150.98		1.0647E+00		3.4200E+00
			-149.86		1.0710E+00		3.4218E+00
			-148.74		1.0785E+00		3.4164E+00
			-147.63		1.0831E+00		3.4218E+00
			-146.51		1.0910E+00		3.4218E+00
			-145.39		1.0963E+00		3.4218E+00
			-144.27		1.1042E+00		3.4200E+00
			-143.15		1.1094E+00		3.4218E+00
			-142.03		1.1162E+00		3.4236E+00
			-140.92		1.1237E+00		3.4200E+00
			-139.80		1.1306E+00		3.4182E+00
			-138.68		1.1362E+00		3.4236E+00
			-137.56		1.1431E+00		3.4218E+00
			-136.44		1.1523E+00		3.4164E+00
			-135.32		1.1574E+00		3.4200E+00
			-134.21		1.1642E+00		3.4200E+00
			-133.09		1.1707E+00		3.4272E+00
			-131.97		1.1782E+00		3.4236E+00
			-130.85		1.1863E+00		3.4200E+00
			-129.73		1.1930E+00		3.4236E+00
			-128.61		1.1999E+00		3.4218E+00
			-127.49		1.2101E+00		3.4182E+00
			-126.38		1.2168E+00		3.4200E+00
			-125.26		1.2212E+00		3.4254E+00
			-124.14		1.2305E+00		3.4200E+00
			-123.02		1.2383E+00		3.4218E+00
			-121.90		1.2462E+00		3.4218E+00
			-120.78		1.2525E+00		3.4218E+00
			-119.67		1.2604E+00		3.4218E+00
			-118.55		1.2689E+00		3.4200E+00
			-117.43		1.2767E+00		3.4218E+00
			-116.31		1.2859E+00		3.4182E+00
			-115.19		1.2945E+00		3.4164E+00
			-114.07		1.3016E+00		3.4200E+00
			-112.96		1.3105E+00		3.4200E+00
			-111.84		1.3177E+00		3.4218E+00
			-110.72		1.3261E+00		3.4218E+00
			-109.60		1.3356E+00		3.4218E+00
			-108.48		1.3446E+00		3.4218E+00
			-107.36		1.3521E+00		3.4200E+00
			-106.25		1.3603E+00		3.4218E+00
			-105.13		1.3693E+00		3.4218E+00
			-104.01		1.3772E+00		3.4218E+00
			-102.89		1.3861E+00		3.4218E+00
			-101.77		1.3955E+00		3.4182E+00
			-100.65		1.4060E+00		3.4182E+00
			-99.54		1.4146E+00		3.4164E+00
			-98.42		1.4239E+00		3.4182E+00
			-97.30		1.4317E+00		3.4236E+00
			-96.18		1.4429E+00		3.4182E+00
			-95.06		1.4521E+00		3.4200E+00
			-93.94		1.4616E+00		3.4200E+00
			-92.83		1.4706E+00		3.4236E+00
			-91.71		1.4797E+00		3.4218E+00
			-90.59		1.4892E+00		3.4218E+00
			-89.47		1.5011E+00		3.4200E+00
			-88.35		1.5100E+00		3.4200E+00
			-87.23		1.5200E+00		3.4200E+00
			-86.11		1.5300E+00		3.4200E+00
			-85.00		1.5395E+00		3.4200E+00
			-83.88		1.5508E+00		3.4182E+00
			-82.76		1.5616E+00		3.4200E+00
			-81.64		1.5729E+00		3.4182E+00
			-80.52		1.5813E+00		3.4218E+00
			-79.40		1.5925E+00		3.4236E+00
			-78.29		1.6018E+00		3.4218E+00
			-77.17		1.6166E+00		3.4182E+00
			-76.05		1.6272E+00		3.4182E+00
			-74.93		1.6370E+00		3.4218E+00
			-73.81		1.6481E+00		3.4218E+00
			-72.69		1.6602E+00		3.4218E+00
			-71.58		1.6719E+00		3.4236E+00
			-70.46		1.6849E+00		3.4218E+00
			-69.34		1.6942E+00		3.4200E+00
			-68.22		1.7072E+00		3.4182E+00
			-67.10		1.7184E+00		3.4200E+00
			-65.98		1.7305E+00		3.4200E+00
			-64.87		1.7430E+00		3.4182E+00
			-63.75		1.7542E+00		3.4200E+00
			-62.63		1.7682E+00		3.4164E+00
			-61.51		1.7779E+00		3.4200E+00
			-60.39		1.7927E+00		3.4218E+00
			-59.27		1.8058E+00		3.4200E+00
			-58.16		1.8186E+00		3.4236E+00
			-57.04		1.8306E+00		3.4218E+00
			-55.92		1.8433E+00		3.4236E+00
			-54.80		1.8563E+00		3.4200E+00
			-53.68		1.8716E+00		3.4200E+00
			-52.56		1.8851E+00		3.4164E+00
			-51.45		1.8984E+00		3.4182E+00
			-50.33		1.9131E+00		3.4182E+00
			-49.21		1.9258E+00		3.4200E+00
			-48.09		1.9415E+00		3.4164E+00
			-46.97		1.9516E+00		3.4236E+00
			-45.85		1.9679E+00		3.4200E+00
			-44.74		1.9805E+00		3.4218E+00
			-43.62		1.9974E+00		3.4182E+00
			-42.50		2.0079E+00		3.4236E+00
			-41.38		2.0247E+00		3.4218E+00
			-40.26		2.0389E+00		3.4200E+00
			-39.14		2.0532E+00		3.4200E+00
			-38.02		2.0674E+00		3.4200E+00
			-36.91		2.0821E+00		3.4200E+00
			-35.79		2.0968E+00		3.4200E+00
			-34.67		2.1137E+00		3.4182E+00
			-33.55		2.1251E+00		3.4254E+00
			-32.43		2.1399E+00		3.4236E+00
			-31.31		2.1578E+00		3.4218E+00
			-30.20		2.1720E+00		3.4218E+00
			-29.08		2.1853E+00		3.4200E+00
			-27.96		2.1995E+00		3.4200E+00
			-26.84		2.2138E+00		3.4182E+00
			-25.72		2.2284E+00		3.4200E+00
			-24.60		2.2445E+00		3.4164E+00
			-23.49		2.2568E+00		3.4200E+00
			-22.37		2.2689E+00		3.4200E+00
			-21.25		2.2813E+00		3.4236E+00
			-20.13		2.2947E+00		3.4200E+00
			-19.01		2.3067E+00		3.4218E+00
			-17.89		2.3232E+00		3.4200E+00
			-16.78		2.3349E+00		3.4182E+00
			-15.66		2.3458E+00		3.4200E+00
			-14.54		2.3538E+00		3.4236E+00
			-13.42		2.3668E+00		3.4200E+00
			-12.30		2.3763E+00		3.4200E+00
			-11.18		2.3861E+00		3.4218E+00
			-10.07		2.3953E+00		3.4200E+00
			-8.95		2.4008E+00		3.4218E+00
			-7.83		2.4075E+00		3.4236E+00
			-6.71		2.4145E+00		3.4218E+00
			-5.59		2.4203E+00		3.4218E+00
			-4.47		2.4276E+00		3.4182E+00
			-3.36		2.4292E+00		3.4218E+00
			-2.24		2.4339E+00		3.4182E+00
			-1.12		2.4373E+00		3.4164E+00
			0.00		2.4340E+00		3.4218E+00
			1.12		2.4355E+00		3.4182E+00
			2.24		2.4350E+00		3.4218E+00
			3.36		2.4326E+00		3.4200E+00
			4.47		2.4295E+00		3.4200E+00
			5.59		2.4261E+00		3.4218E+00
			6.71		2.4214E+00		3.4218E+00
			7.83		2.4150E+00		3.4218E+00
			8.95		2.4101E+00		3.4236E+00
			10.07		2.3978E+00		3.4254E+00
			11.18		2.3922E+00		3.4236E+00
			12.30		2.3838E+00		3.4236E+00
			13.42		2.3745E+00		3.4218E+00
			14.54		2.3672E+00		3.4218E+00
			15.66		2.3574E+00		3.4200E+00
			16.78		2.3468E+00		3.4200E+00
			17.89		2.3344E+00		3.4236E+00
			19.01		2.3219E+00		3.4218E+00
			20.13		2.3117E+00		3.4182E+00
			21.25		2.2968E+00		3.4200E+00
			22.37		2.2820E+00		3.4218E+00
			23.49		2.2693E+00		3.4218E+00
			24.60		2.2568E+00		3.4200E+00
			25.72		2.2425E+00		3.4218E+00
			26.84		2.2284E+00		3.4200E+00
			27.96		2.2146E+00		3.4218E+00
			29.08		2.2022E+00		3.4182E+00
			30.20		2.1862E+00		3.4218E+00
			31.31		2.1699E+00		3.4218E+00
			32.43		2.1568E+00		3.4218E+00
			33.55		2.1410E+00		3.4218E+00
			34.67		2.1273E+00		3.4218E+00
			35.79		2.1147E+00		3.4200E+00
			36.91		2.0995E+00		3.4182E+00
			38.02		2.0847E+00		3.4200E+00
			39.14		2.0721E+00		3.4182E+00
			40.26		2.0568E+00		3.4200E+00
			41.38		2.0443E+00		3.4164E+00
			42.50		2.0274E+00		3.4182E+00
			43.62		2.0100E+00		3.4236E+00
			44.74		1.9958E+00		3.4218E+00
			45.85		1.9816E+00		3.4218E+00
			46.97		1.9669E+00		3.4236E+00
			48.09		1.9506E+00		3.4272E+00
			49.21		1.9400E+00		3.4218E+00
			50.33		1.9264E+00		3.4218E+00
			51.45		1.9142E+00		3.4182E+00
			52.56		1.8994E+00		3.4182E+00
			53.68		1.8868E+00		3.4182E+00
			54.80		1.8722E+00		3.4218E+00
			55.92		1.8576E+00		3.4254E+00
			57.04		1.8448E+00		3.4218E+00
			58.16		1.8311E+00		3.4218E+00
			59.27		1.8170E+00		3.4236E+00
			60.39		1.8056E+00		3.4254E+00
			61.51		1.7942E+00		3.4200E+00
			62.63		1.7811E+00		3.4200E+00
			63.75		1.7691E+00		3.4218E+00
			64.87		1.7560E+00		3.4236E+00
			65.98		1.7449E+00		3.4218E+00
			67.10		1.7332E+00		3.4200E+00
			68.22		1.7201E+00		3.4218E+00
			69.34		1.7072E+00		3.4236E+00
			70.46		1.6956E+00		3.4236E+00
			71.58		1.6839E+00		3.4218E+00
			72.69		1.6700E+00		3.4254E+00
			73.81		1.6612E+00		3.4218E+00
			74.93		1.6491E+00		3.4218E+00
			76.05		1.6388E+00		3.4236E+00
			77.17		1.6284E+00		3.4200E+00
		END_DATA
	END_SCAN  1
END_SCAN_DATA
