BEGIN_SCAN_DATA
	FORMAT=CC-Export V1.9                  
	FILE_CREATION_DATE=29-Feb-2012 15:18:00
	LAST_MODIFIED=29-Feb-2012 15:18:00
	BEGIN_SCAN  1
		TASK_NAME=tba PDD Profiles
		PROGRAM=tbaScan
		COMMENT=FFF Acceptance - 7 MV
		MEAS_DATE=29-Feb-2012 15:15:32
		LINAC=selftest
		MODALITY=X
		ISOCENTER=1000.00
		INPLANE_AXIS=X
		CROSSPLANE_AXIS=Y
		DEPTH_AXIS=Depth
		INPLANE_AXIS_DIR=GUN_TARGET
		CROSSPLANE_AXIS_DIR=RIGHT_LEFT
		DEPTH_AXIS_DIR=UP_DOWN
		ENERGY=7.00
		NOMINAL_DMAX=15.00
		SSD=900.00
		SCD=450.00
		BLOCK=0
		WEDGE_ANGLE=0.00
		FIELD_INPLANE=300.00
		FIELD_CROSSPLANE=300.00
		FIELD_TYPE=RECTANGULAR
		GANTRY=0.00
		GANTRY_UPRIGHT_POSITION=0
		GANTRY_ROTATION=CW
		COLL_ANGLE=90.00
		COLL_OFFSET_INPLANE=0.00
		COLL_OFFSET_CROSSPLANE=0.00
		SCAN_DEVICE=MP3
		SCAN_DEVICE_SETUP=BARA_GUN_TARGET
		ELECTROMETER=TANDEM
		RANGE_FIELD=MEDIUM
		RANGE_REFERENCE=AUTO
		DETECTOR=THIMBLE_CHAMBER
		DETECTOR_SUBCODE=SEMIFLEX
		DETECTOR_RADIUS=2.75
		DETECTOR_NAME=PTW 31010 Semiflex
		DETECTOR_SN=2107
		DETECTOR_CALIBRATION=304700000.00
		DETECTOR_IS_CALIBRATED=1
		DETECTOR_REFERENCE=THIMBLE_CHAMBER
		DETECTOR_REFERENCE_SUBCODE=SEMIFLEX
		DETECTOR_REFERENCE_RADIUS=2.75
		DETECTOR_REFERENCE_NAME=PTW 31010 Semiflex
		DETECTOR_REFERENCE_SN=1726
		DETECTOR_REFERENCE_IS_CALIBRATED=1
		DETECTOR_REFERENCE_CALIBRATION=304400000.00
		DETECTOR_HV=0.0
		DETECTOR_REFERENCE_HV=350.0
		REF_FIELD_DEPTH=100.00
		REF_FIELD_DEFINED=ISOCENTER
		REF_FIELD_INPLANE=100.00
		REF_FIELD_CROSSPLANE=100.00
		REF_SCAN_POSITIONS=-150.00;-148.00;-144.00;-140.00;-136.00;-132.00;-128.00;-124.00;-120.00;-116.00;-112.00;-108.00;-104.00;-100.00;-96.00;-92.00;-88.00;-84.00;-80.00;-76.00;-72.00;-68.00;-64.00;-60.00;-59.00;-58.00;-57.00;-56.00;-55.00;-54.00;-53.00;-52.00;-51.00;-50.00;-49.00;-48.00;-47.00;-46.00;-45.00;-44.00;-43.00;-42.00;-41.00;-40.00;-36.00;-32.00;-28.00;-24.00;-20.00;-16.00;-12.00;-8.00;-4.00;0.00;4.00;8.00;12.00;16.00;20.00;24.00;28.00;32.00;36.00;40.00;41.00;42.00;43.00;44.00;45.00;46.00;47.00;48.00;49.00;50.00;51.00;52.00;53.00;54.00;55.00;56.00;57.00;58.00;59.00;60.00;64.00;68.00;72.00;76.00;80.00;84.00;88.00;92.00;96.00;100.00;104.00;108.00;112.00;116.00;120.00;124.00;128.00;132.00;136.00;140.00;144.00;148.00;150.00;
		REF_OVERSCAN_FACTOR=1.00
		SCAN_CURVETYPE=INPLANE_PROFILE
		SCAN_DEPTH=100.00
		SCAN_OFFAXIS_INPLANE=0.00
		SCAN_OFFAXIS_CROSSPLANE=0.00
		SCAN_ANGLE=0.00
		SCAN_DIAGONAL=NOT_DIAGONAL
		SCAN_DIRECTION=POSITIVE
		MEAS_MEDIUM=WATER
		MEAS_PRESET=REFERENCE_DOSEMETER
		MEAS_TIME=0.300
		MEAS_UNIT=A.U.
		SCAN_SPEEDS=20.00; 50.00;40.00; 50.00;100.00; 50.00;400.00; 50.00;
		DELAY_TIMES=20.00; 0.000;150.00; 0.000;400.00; 0.000;
		PRESSURE=1013.25
		TEMPERATURE=20.00
		NORM_TEMPERATURE=20.00
		CORRECTION_FACTOR=1.0000
		EXPECTED_MAX_DOSE_RATE=16.00
		BEGIN_DATA
			-244.00		38.544E-03		12.712E+00
			-240.00		40.734E-03		12.746E+00
			-236.00		43.328E-03		12.743E+00
			-232.00		46.257E-03		12.726E+00
			-228.00		49.045E-03		12.748E+00
			-224.00		52.072E-03		12.745E+00
			-220.00		55.554E-03		12.735E+00
			-216.00		59.936E-03		12.750E+00
			-212.00		63.890E-03		12.734E+00
			-208.00		68.396E-03		12.750E+00
			-204.00		73.418E-03		12.725E+00
			-200.00		80.297E-03		12.750E+00
			-196.00		87.778E-03		12.746E+00
			-192.00		94.533E-03		12.745E+00
			-188.00		102.25E-03		12.748E+00
			-184.00		111.71E-03		12.748E+00
			-180.00		122.56E-03		12.754E+00
			-176.00		134.05E-03		12.752E+00
			-172.00		148.39E-03		12.739E+00
			-168.00		166.45E-03		12.752E+00
			-164.00		189.79E-03		12.715E+00
			-160.00		221.93E-03		12.752E+00
			-159.00		232.76E-03		12.732E+00
			-158.00		245.40E-03		12.725E+00
			-157.00		261.33E-03		12.746E+00
			-156.00		279.59E-03		12.712E+00
			-155.00		305.28E-03		12.732E+00
			-154.00		338.70E-03		12.712E+00
			-153.00		393.08E-03		12.739E+00
			-152.00		479.13E-03		12.706E+00
			-151.00		624.15E-03		12.745E+00
			-150.00		833.84E-03		12.743E+00
			-149.00		1.0797E+00		12.750E+00
			-148.00		1.2652E+00		12.741E+00
			-147.00		1.3766E+00		12.752E+00
			-146.00		1.4349E+00		12.754E+00
			-145.00		1.4740E+00		12.750E+00
			-144.00		1.5023E+00		12.741E+00
			-143.00		1.5234E+00		12.745E+00
			-142.00		1.5417E+00		12.735E+00
			-141.00		1.5562E+00		12.746E+00
			-140.00		1.5698E+00		12.717E+00
			-136.00		1.6187E+00		12.717E+00
			-132.00		1.6571E+00		12.732E+00
			-128.00		1.6991E+00		12.664E+00
			-124.00		1.7328E+00		12.756E+00
			-120.00		1.7717E+00		12.734E+00
			-116.00		1.8086E+00		12.746E+00
			-112.00		1.8471E+00		12.748E+00
			-108.00		1.8798E+00		12.750E+00
			-104.00		1.9164E+00		12.735E+00
			-100.00		1.9509E+00		12.604E+00
			-96.00		1.9875E+00		12.639E+00
			-92.00		2.0212E+00		12.717E+00
			-88.00		2.0617E+00		12.743E+00
			-84.00		2.1013E+00		12.693E+00
			-80.00		2.1320E+00		12.734E+00
			-76.00		2.1741E+00		12.748E+00
			-72.00		2.2118E+00		12.737E+00
			-68.00		2.2492E+00		12.704E+00
			-64.00		2.2875E+00		12.756E+00
			-60.00		2.3272E+00		12.750E+00
			-56.00		2.3651E+00		12.746E+00
			-52.00		2.4053E+00		12.754E+00
			-48.00		2.4433E+00		12.750E+00
			-44.00		2.4831E+00		12.752E+00
			-40.00		2.5204E+00		12.737E+00
			-36.00		2.5567E+00		12.735E+00
			-32.00		2.5914E+00		12.748E+00
			-28.00		2.6251E+00		12.745E+00
			-24.00		2.6559E+00		12.748E+00
			-20.00		2.6841E+00		12.730E+00
			-16.00		2.7089E+00		12.756E+00
			-12.00		2.7285E+00		12.757E+00
			-8.00		2.7439E+00		12.739E+00
			-4.00		2.7548E+00		12.735E+00
			0.00		2.7609E+00		12.734E+00
			4.00		2.7590E+00		12.756E+00
			8.00		2.7510E+00		12.746E+00
			12.00		2.7403E+00		12.743E+00
			16.00		2.7233E+00		12.748E+00
			20.00		2.7000E+00		12.750E+00
			24.00		2.6752E+00		12.752E+00
			28.00		2.6481E+00		12.745E+00
			32.00		2.6128E+00		12.721E+00
			36.00		2.5799E+00		12.748E+00
			40.00		2.5503E+00		12.717E+00
			44.00		2.5096E+00		12.734E+00
			48.00		2.4709E+00		12.748E+00
			52.00		2.4329E+00		12.737E+00
			56.00		2.3942E+00		12.745E+00
			60.00		2.3569E+00		12.714E+00
			64.00		2.3147E+00		12.756E+00
			68.00		2.2785E+00		12.734E+00
			72.00		2.2356E+00		12.757E+00
			76.00		2.1984E+00		12.732E+00
			80.00		2.1610E+00		12.757E+00
			84.00		2.1236E+00		12.750E+00
			88.00		2.0860E+00		12.752E+00
			92.00		2.0487E+00		12.743E+00
			96.00		2.0134E+00		12.748E+00
			100.00		1.9750E+00		12.746E+00
			104.00		1.9380E+00		12.754E+00
			108.00		1.9038E+00		12.704E+00
			112.00		1.8673E+00		12.708E+00
			116.00		1.8309E+00		12.741E+00
			120.00		1.7957E+00		12.726E+00
			124.00		1.7589E+00		12.619E+00
			128.00		1.7203E+00		12.721E+00
			132.00		1.6810E+00		12.757E+00
			136.00		1.6379E+00		12.735E+00
			140.00		1.5913E+00		12.741E+00
			141.00		1.5772E+00		12.681E+00
			142.00		1.5631E+00		12.737E+00
			143.00		1.5477E+00		12.710E+00
			144.00		1.5270E+00		12.726E+00
			145.00		1.5006E+00		12.719E+00
			146.00		1.4714E+00		12.748E+00
			147.00		1.4260E+00		12.735E+00
			148.00		1.3465E+00		12.725E+00
			149.00		1.2106E+00		12.690E+00
			150.00		989.75E-03		12.692E+00
			151.00		752.68E-03		12.730E+00
			152.00		554.60E-03		12.586E+00
			153.00		439.85E-03		12.723E+00
			154.00		368.24E-03		12.725E+00
			155.00		323.09E-03		12.743E+00
			156.00		293.51E-03		12.750E+00
			157.00		270.40E-03		12.745E+00
			158.00		254.09E-03		12.735E+00
			159.00		239.26E-03		12.692E+00
			160.00		227.54E-03		12.703E+00
			164.00		192.29E-03		12.721E+00
			168.00		167.97E-03		12.604E+00
			172.00		150.23E-03		12.668E+00
			176.00		134.57E-03		12.730E+00
			180.00		123.15E-03		12.723E+00
			184.00		112.61E-03		12.695E+00
			188.00		103.10E-03		12.714E+00
			192.00		95.513E-03		12.480E+00
			196.00		87.750E-03		12.688E+00
			200.00		81.250E-03		12.735E+00
			204.00		74.003E-03		12.723E+00
			208.00		68.637E-03		12.732E+00
			212.00		64.094E-03		12.750E+00
			216.00		59.979E-03		12.741E+00
			220.00		55.762E-03		12.721E+00
			224.00		52.668E-03		12.704E+00
			228.00		49.198E-03		12.672E+00
			232.00		46.551E-03		12.725E+00
			236.00		43.834E-03		12.721E+00
			240.00		41.332E-03		12.562E+00
			244.00		39.074E-03		12.726E+00
		END_DATA
	END_SCAN  1
END_SCAN_DATA
