BEGIN_SCAN_DATA
	FORMAT=CC-Export V1.9                  
	FILE_CREATION_DATE=11-Apr-2014 15:05:45
	LAST_MODIFIED=11-Apr-2014 15:05:45
	BEGIN_SCAN  1
		TASK_NAME=DOSE
		GROUP_NAME=TG_21.2
		PROGRAM=MultiCheck 3.04.0004
		COMMENT=e12 20x20 U4
		MEAS_DATE=11-Apr-2014 15:05:11
		LINAC=Elekta
		MODALITY=EL
		INPLANE_AXIS_DIR=TARGET_GUN
		CROSSPLANE_AXIS_DIR=LEFT_RIGHT
		DEPTH_AXIS_DIR=UP_DOWN
		ENERGY=12.00
		SSD=1000.00
		WEDGE=None
		FIELD_INPLANE=200.00
		FIELD_CROSSPLANE=200.00
		FIELD_TYPE=RECTANGULAR
		GANTRY=0.00
		GANTRY_UPRIGHT_POSITION=0
		GANTRY_ROTATION=CW
		COLL_ANGLE=0.00
		COLL_OFFSET_INPLANE=0.00
		COLL_OFFSET_CROSSPLANE=0.00
		SCAN_DEVICE=STARCHECKMAXI
		ELECTROMETER=2D_ARRAY_INTERFACE
		DETECTOR=STARCHECKMAXI
		SCAN_CURVETYPE=INPLANE_PROFILE
		SCAN_DEPTH=0.00
		SCAN_OFFAXIS_CROSSPLANE=0.00
		SCAN_ANGLE=0.00
		SCAN_DIAGONAL=NOT_DIAGONAL
		MEAS_PRESET=TIME_PRESET
		MEAS_TIME=21.200
		MEAS_UNIT=GY
		PRESSURE=1009.50
		TEMPERATURE=21.50
		NORM_TEMPERATURE=20.00
		CORRECTION_FACTOR=1.0000
		CORRECTIONS=AIR_DENSITY_CORR;
		BEGIN_DATA
			-210.00		1.0675E-03		#141
			-207.00		1.2496E-03		#140
			-204.00		1.2635E-03		#139
			-201.00		1.3100E-03		#138
			-198.00		1.4239E-03		#137
			-195.00		1.1706E-03		#136
			-192.00		719.06E-06		#135
			-189.00		348.62E-06		#134
			-186.00		-22.290E-06		#133
			-183.00		-121.31E-06		#132
			-180.00		-8.4516E-06		#131
			-177.00		82.844E-06		#130
			-174.00		195.66E-06		#129
			-171.00		320.15E-06		#128
			-168.00		575.66E-06		#127
			-165.00		923.60E-06		#126
			-162.00		1.1516E-03		#125
			-159.00		1.3034E-03		#124
			-156.00		1.4905E-03		#123
			-153.00		1.7557E-03		#122
			-150.00		2.3705E-03		#121
			-147.00		3.5320E-03		#120
			-144.00		4.6516E-03		#119
			-141.00		5.1132E-03		#118
			-138.00		5.0706E-03		#117
			-135.00		5.0345E-03		#116
			-132.00		5.2844E-03		#115
			-129.00		5.7832E-03		#114
			-126.00		6.5468E-03		#113
			-123.00		7.5736E-03		#112
			-120.00		9.3764E-03		#111
			-117.00		12.873E-03		#110
			-114.00		20.183E-03		#109
			-111.00		44.100E-03		#108
			-108.00		121.72E-03		#107
			-105.00		260.79E-03		#106
			-102.00		387.19E-03		#105
			-99.00		445.99E-03		#104
			-96.00		464.95E-03		#103
			-93.00		475.29E-03		#102
			-90.00		482.45E-03		#101
			-87.00		488.03E-03		#100
			-84.00		492.42E-03		#99
			-81.00		495.80E-03		#98
			-78.00		498.51E-03		#97
			-75.00		501.20E-03		#96
			-72.00		503.36E-03		#95
			-69.00		504.45E-03		#94
			-66.00		505.04E-03		#93
			-63.00		505.60E-03		#92
			-60.00		506.08E-03		#91
			-57.00		506.26E-03		#90
			-54.00		506.12E-03		#89
			-51.00		505.81E-03		#88
			-48.00		505.77E-03		#87
			-45.00		505.40E-03		#86
			-42.00		504.74E-03		#85
			-39.00		504.20E-03		#84
			-36.00		503.36E-03		#83
			-33.00		502.24E-03		#82
			-30.00		501.49E-03		#81
			-27.00		501.12E-03		#80
			-24.00		501.12E-03		#79
			-21.00		501.29E-03		#78
			-18.00		500.79E-03		#77
			-15.00		500.29E-03		#76
			-12.00		500.34E-03		#75
			-9.00		500.10E-03		#74
			-6.00		499.86E-03		#73
			-3.00		499.94E-03		#72
			0.00		500.11E-03		#71
			3.00		500.58E-03		#70
			6.00		501.01E-03		#69
			9.00		501.16E-03		#68
			12.00		501.15E-03		#67
			15.00		501.35E-03		#66
			18.00		502.20E-03		#65
			21.00		503.41E-03		#64
			24.00		504.49E-03		#63
			27.00		505.44E-03		#62
			30.00		506.30E-03		#61
			33.00		507.40E-03		#60
			36.00		508.74E-03		#59
			39.00		509.98E-03		#58
			42.00		511.10E-03		#57
			45.00		511.93E-03		#56
			48.00		512.35E-03		#55
			51.00		512.45E-03		#54
			54.00		512.39E-03		#53
			57.00		512.35E-03		#52
			60.00		512.20E-03		#51
			63.00		511.41E-03		#50
			66.00		510.13E-03		#49
			69.00		508.96E-03		#48
			72.00		508.00E-03		#47
			75.00		506.79E-03		#46
			78.00		504.69E-03		#45
			81.00		501.81E-03		#44
			84.00		498.57E-03		#43
			87.00		494.40E-03		#42
			90.00		489.01E-03		#41
			93.00		482.20E-03		#40
			96.00		472.86E-03		#39
			99.00		458.75E-03		#38
			102.00		420.27E-03		#37
			105.00		317.82E-03		#36
			108.00		171.57E-03		#35
			111.00		66.410E-03		#34
			114.00		26.795E-03		#33
			117.00		15.714E-03		#32
			120.00		11.122E-03		#31
			123.00		8.5018E-03		#30
			126.00		6.8534E-03		#29
			129.00		5.9488E-03		#28
			132.00		5.3166E-03		#27
			135.00		4.7189E-03		#26
			138.00		4.4451E-03		#25
			141.00		4.6489E-03		#24
			144.00		4.7862E-03		#23
			147.00		4.0232E-03		#22
			150.00		2.5895E-03		#21
			153.00		1.4219E-03		#20
			156.00		946.81E-06		#19
			159.00		902.31E-06		#18
			162.00		802.15E-06		#17
			165.00		495.08E-06		#16
			168.00		206.80E-06		#15
			171.00		-81.728E-06		#14
			174.00		-355.74E-06		#13
			177.00		-394.84E-06		#12
			180.00		-439.72E-06		#11
			183.00		-491.36E-06		#10
			186.00		-324.11E-06		#9
			189.00		-50.727E-06		#8
			192.00		337.70E-06		#7
			195.00		758.88E-06		#6
			198.00		957.81E-06		#5
			201.00		1.1226E-03		#4
			204.00		1.3012E-03		#3
			207.00		1.2820E-03		#2
			210.00		1.2356E-03		#1
		END_DATA
	END_SCAN  1
	BEGIN_SCAN  2
		TASK_NAME=DOSE
		GROUP_NAME=LR_21.2
		PROGRAM=MultiCheck 3.04.0004
		COMMENT=e12 20x20 U4
		MEAS_DATE=11-Apr-2014 15:05:11
		LINAC=Elekta
		MODALITY=EL
		INPLANE_AXIS_DIR=TARGET_GUN
		CROSSPLANE_AXIS_DIR=LEFT_RIGHT
		DEPTH_AXIS_DIR=UP_DOWN
		ENERGY=12.00
		SSD=1000.00
		WEDGE=None
		FIELD_INPLANE=200.00
		FIELD_CROSSPLANE=200.00
		FIELD_TYPE=RECTANGULAR
		GANTRY=0.00
		GANTRY_UPRIGHT_POSITION=0
		GANTRY_ROTATION=CW
		COLL_ANGLE=0.00
		COLL_OFFSET_INPLANE=0.00
		COLL_OFFSET_CROSSPLANE=0.00
		SCAN_DEVICE=STARCHECKMAXI
		ELECTROMETER=2D_ARRAY_INTERFACE
		DETECTOR=STARCHECKMAXI
		SCAN_CURVETYPE=CROSSPLANE_PROFILE
		SCAN_DEPTH=0.00
		SCAN_OFFAXIS_INPLANE=0.00
		SCAN_ANGLE=0.00
		SCAN_DIAGONAL=NOT_DIAGONAL
		MEAS_PRESET=TIME_PRESET
		MEAS_TIME=21.200
		MEAS_UNIT=GY
		PRESSURE=1009.50
		TEMPERATURE=21.50
		NORM_TEMPERATURE=20.00
		CORRECTION_FACTOR=1.0000
		CORRECTIONS=AIR_DENSITY_CORR;
		BEGIN_DATA
			-210.00		2.8280E-03		#279
			-207.00		2.6694E-03		#278
			-204.00		2.4784E-03		#277
			-201.00		2.3684E-03		#276
			-198.00		2.1814E-03		#275
			-195.00		1.8760E-03		#274
			-192.00		1.7228E-03		#273
			-189.00		1.7369E-03		#272
			-186.00		1.8630E-03		#271
			-183.00		2.0574E-03		#270
			-180.00		2.1374E-03		#269
			-177.00		2.0327E-03		#268
			-174.00		1.9608E-03		#267
			-171.00		2.1169E-03		#266
			-168.00		2.3491E-03		#265
			-165.00		2.6820E-03		#264
			-162.00		3.3523E-03		#263
			-159.00		4.0427E-03		#262
			-156.00		4.3602E-03		#261
			-153.00		4.6723E-03		#260
			-150.00		5.9409E-03		#259
			-147.00		9.0255E-03		#258
			-144.00		11.705E-03		#257
			-141.00		10.970E-03		#256
			-138.00		8.6895E-03		#255
			-135.00		7.3903E-03		#254
			-132.00		7.1276E-03		#253
			-129.00		7.4725E-03		#252
			-126.00		8.0518E-03		#251
			-123.00		8.4365E-03		#250
			-120.00		9.5063E-03		#249
			-117.00		13.525E-03		#248
			-114.00		21.588E-03		#247
			-111.00		43.136E-03		#246
			-108.00		113.88E-03		#245
			-105.00		247.54E-03		#244
			-102.00		375.08E-03		#243
			-99.00		436.97E-03		#242
			-96.00		457.10E-03		#241
			-93.00		467.89E-03		#240
			-90.00		475.72E-03		#239
			-87.00		481.89E-03		#238
			-84.00		487.03E-03		#237
			-81.00		491.47E-03		#236
			-78.00		495.07E-03		#235
			-75.00		497.33E-03		#234
			-72.00		498.95E-03		#233
			-69.00		501.06E-03		#232
			-66.00		502.67E-03		#231
			-63.00		503.15E-03		#230
			-60.00		503.37E-03		#229
			-57.00		503.94E-03		#228
			-54.00		504.20E-03		#227
			-51.00		504.31E-03		#226
			-48.00		504.95E-03		#225
			-45.00		505.32E-03		#224
			-42.00		505.38E-03		#223
			-39.00		505.42E-03		#222
			-36.00		505.24E-03		#221
			-33.00		504.74E-03		#220
			-30.00		504.02E-03		#219
			-27.00		503.54E-03		#218
			-24.00		503.22E-03		#217
			-21.00		502.94E-03		#216
			-18.00		502.61E-03		#215
			-15.00		501.85E-03		#214
			-12.00		500.99E-03		#213
			-9.00		500.70E-03		#212
			-6.00		500.79E-03		#211
			6.00		500.37E-03		#210
			9.00		500.56E-03		#209
			12.00		501.64E-03		#208
			15.00		502.87E-03		#207
			18.00		503.74E-03		#206
			21.00		504.64E-03		#205
			24.00		505.69E-03		#204
			27.00		506.54E-03		#203
			30.00		507.26E-03		#202
			33.00		508.43E-03		#201
			36.00		509.80E-03		#200
			39.00		510.87E-03		#199
			42.00		511.61E-03		#198
			45.00		512.07E-03		#197
			48.00		512.25E-03		#196
			51.00		512.22E-03		#195
			54.00		511.68E-03		#194
			57.00		510.47E-03		#193
			60.00		509.22E-03		#192
			63.00		508.44E-03		#191
			66.00		507.66E-03		#190
			69.00		506.50E-03		#189
			72.00		505.20E-03		#188
			75.00		503.55E-03		#187
			78.00		501.00E-03		#186
			81.00		497.71E-03		#185
			84.00		493.92E-03		#184
			87.00		489.11E-03		#183
			90.00		482.92E-03		#182
			93.00		475.55E-03		#181
			96.00		466.06E-03		#180
			99.00		451.62E-03		#179
			102.00		414.90E-03		#178
			105.00		317.64E-03		#177
			108.00		176.01E-03		#176
			111.00		72.073E-03		#175
			114.00		31.351E-03		#174
			117.00		18.597E-03		#173
			120.00		13.063E-03		#172
			123.00		10.565E-03		#171
			126.00		9.1605E-03		#170
			129.00		8.1670E-03		#169
			132.00		7.7738E-03		#168
			135.00		7.7282E-03		#167
			138.00		8.0178E-03		#166
			141.00		9.0507E-03		#165
			144.00		10.398E-03		#164
			147.00		9.9850E-03		#163
			150.00		7.5710E-03		#162
			153.00		5.5891E-03		#161
			156.00		4.9488E-03		#160
			159.00		4.7173E-03		#159
			162.00		4.1677E-03		#158
			165.00		3.4648E-03		#157
			168.00		2.8217E-03		#156
			171.00		2.3539E-03		#155
			174.00		2.1453E-03		#154
			177.00		2.0691E-03		#153
			180.00		2.0950E-03		#152
			183.00		2.1094E-03		#151
			186.00		2.0110E-03		#150
			189.00		1.9187E-03		#149
			192.00		1.9683E-03		#148
			195.00		2.0763E-03		#147
			198.00		2.2030E-03		#146
			201.00		2.3485E-03		#145
			204.00		2.4841E-03		#144
			207.00		2.6552E-03		#143
			210.00		2.8124E-03		#142
		END_DATA
	END_SCAN  2
	BEGIN_SCAN  3
		TASK_NAME=DOSE
		GROUP_NAME=TL_GR_21.2
		PROGRAM=MultiCheck 3.04.0004
		COMMENT=e12 20x20 U4
		MEAS_DATE=11-Apr-2014 15:05:11
		LINAC=Elekta
		MODALITY=EL
		INPLANE_AXIS_DIR=TARGET_GUN
		CROSSPLANE_AXIS_DIR=LEFT_RIGHT
		DEPTH_AXIS_DIR=UP_DOWN
		ENERGY=12.00
		SSD=1000.00
		WEDGE=None
		FIELD_INPLANE=200.00
		FIELD_CROSSPLANE=200.00
		FIELD_TYPE=RECTANGULAR
		GANTRY=0.00
		GANTRY_UPRIGHT_POSITION=0
		GANTRY_ROTATION=CW
		COLL_ANGLE=0.00
		COLL_OFFSET_INPLANE=0.00
		COLL_OFFSET_CROSSPLANE=0.00
		SCAN_DEVICE=STARCHECKMAXI
		ELECTROMETER=2D_ARRAY_INTERFACE
		DETECTOR=STARCHECKMAXI
		SCAN_CURVETYPE=INPLANE_PROFILE
		SCAN_DEPTH=0.00
		SCAN_OFFAXIS_CROSSPLANE=0.00
		SCAN_ANGLE=0.00
		SCAN_DIAGONAL=FIRST_DIAGONAL
		MEAS_PRESET=TIME_PRESET
		MEAS_TIME=21.200
		MEAS_UNIT=GY
		PRESSURE=1009.50
		TEMPERATURE=21.50
		NORM_TEMPERATURE=20.00
		CORRECTION_FACTOR=1.0000
		CORRECTIONS=AIR_DENSITY_CORR;
		BEGIN_DATA
			-295.40		-973.43E-06		#659
			-292.40		-822.84E-06		#658
			-289.40		-861.04E-06		#657
			-286.40		-819.49E-06		#656
			-283.40		-613.16E-06		#655
			-280.40		-469.13E-06		#654
			-277.40		-418.56E-06		#653
			-274.40		-409.69E-06		#652
			-271.40		-493.89E-06		#651
			-268.40		-791.09E-06		#650
			-265.40		-1.0308E-03		#649
			-262.40		-1.1615E-03		#648
			-259.40		-1.2759E-03		#647
			-256.40		-1.2098E-03		#646
			-253.40		-1.1616E-03		#645
			-250.40		-1.1738E-03		#644
			-247.40		-1.2400E-03		#643
			-244.40		-1.4749E-03		#642
			-241.40		-1.6274E-03		#641
			-238.40		-1.5690E-03		#640
			-235.40		-1.4824E-03		#639
			-232.40		-1.4885E-03		#638
			-229.40		-1.4923E-03		#637
			-226.40		-1.5984E-03		#636
			-223.40		-1.7626E-03		#635
			-220.40		-1.7064E-03		#634
			-217.40		-1.6300E-03		#633
			-214.40		-1.6813E-03		#632
			-211.40		-1.7439E-03		#631
			-208.40		-1.8170E-03		#630
			-205.40		-1.8525E-03		#629
			-202.40		-1.7571E-03		#628
			-199.40		-1.4912E-03		#627
			-196.40		-1.0689E-03		#626
			-193.40		-681.40E-06		#625
			-190.40		-154.57E-06		#624
			-187.40		715.75E-06		#623
			-184.40		1.4887E-03		#622
			-181.40		1.9240E-03		#621
			-178.40		2.2346E-03		#620
			-175.40		2.5268E-03		#619
			-172.40		2.7146E-03		#618
			-169.40		2.8375E-03		#617
			-166.40		3.1380E-03		#616
			-163.40		3.8648E-03		#615
			-160.40		5.3310E-03		#614
			-157.40		8.0960E-03		#613
			-154.40		15.150E-03		#612
			-151.40		40.923E-03		#611
			-148.40		112.65E-03		#610
			-145.40		228.14E-03		#609
			-142.40		334.31E-03		#608
			-139.40		394.21E-03		#607
			-136.40		421.57E-03		#606
			-133.40		437.66E-03		#605
			-130.40		449.62E-03		#604
			-127.40		459.11E-03		#603
			-124.40		466.96E-03		#602
			-121.40		473.62E-03		#601
			-118.40		479.53E-03		#600
			-115.40		484.82E-03		#599
			-112.40		489.42E-03		#598
			-109.40		493.19E-03		#597
			-106.40		496.24E-03		#596
			-103.40		498.93E-03		#595
			-100.40		501.03E-03		#594
			-97.40		502.82E-03		#593
			-94.40		504.63E-03		#592
			-91.40		506.10E-03		#591
			-88.40		507.32E-03		#590
			-85.40		508.28E-03		#589
			-82.40		508.69E-03		#588
			-79.40		508.95E-03		#587
			-76.40		509.29E-03		#586
			-73.40		509.49E-03		#585
			-70.40		509.48E-03		#584
			-67.40		509.34E-03		#583
			-64.40		509.26E-03		#582
			-61.40		509.11E-03		#581
			-58.40		508.95E-03		#580
			-55.40		508.63E-03		#579
			-52.40		507.85E-03		#578
			-49.40		506.97E-03		#577
			-46.40		506.56E-03		#576
			-43.40		506.72E-03		#575
			-40.40		506.84E-03		#574
			-37.40		506.51E-03		#573
			-34.40		506.08E-03		#572
			-31.40		505.91E-03		#571
			-28.40		505.82E-03		#570
			-25.40		505.46E-03		#569
			-22.40		505.13E-03		#568
			-19.40		505.25E-03		#567
			-16.40		505.73E-03		#566
			-13.40		506.08E-03		#565
			13.40		506.59E-03		#564
			16.40		506.88E-03		#563
			19.40		507.82E-03		#562
			22.40		509.86E-03		#561
			25.40		513.46E-03		#560
			28.40		519.65E-03		#559
			31.40		531.18E-03		#558
			34.40		555.72E-03		#557
			37.40		568.16E-03		#556
			40.40		490.80E-03		#555
			43.40		343.27E-03		#554
			46.40		234.12E-03		#553
			49.40		170.70E-03		#552
			52.40		119.30E-03		#551
			55.40		80.812E-03		#550
			58.40		54.232E-03		#549
			61.40		37.075E-03		#548
			64.40		26.263E-03		#547
			67.40		19.404E-03		#546
			70.40		15.107E-03		#545
			73.40		12.393E-03		#544
			76.40		10.477E-03		#543
			79.40		8.9433E-03		#542
			82.40		7.8163E-03		#541
			85.40		7.0937E-03		#540
			88.40		6.3755E-03		#539
			91.40		5.6866E-03		#538
			94.40		5.1735E-03		#537
			97.40		4.5764E-03		#536
			100.40		4.0570E-03		#535
			103.40		3.8600E-03		#534
			106.40		3.6610E-03		#533
			109.40		3.2190E-03		#532
			112.40		2.7589E-03		#531
			115.40		2.4160E-03		#530
			118.40		1.9537E-03		#529
			121.40		1.4648E-03		#528
			124.40		1.2954E-03		#527
			127.40		1.3132E-03		#526
			130.40		1.0341E-03		#525
			133.40		520.87E-06		#524
			136.40		234.55E-06		#523
			139.40		11.110E-06		#522
			142.40		-212.54E-06		#521
			145.40		-135.15E-06		#520
			148.40		89.034E-06		#519
			151.40		137.27E-06		#518
			154.40		128.74E-06		#517
			157.40		90.467E-06		#516
			160.40		-237.36E-06		#515
			163.40		-568.50E-06		#514
			166.40		-683.50E-06		#513
			169.40		-738.68E-06		#512
			172.40		-752.19E-06		#511
			175.40		-885.17E-06		#510
			178.40		-1.1256E-03		#509
			181.40		-1.4114E-03		#508
			184.40		-1.7410E-03		#507
			187.40		-1.8990E-03		#506
			190.40		-1.9823E-03		#505
			193.40		-2.0501E-03		#504
			196.40		-1.9601E-03		#503
			199.40		-1.9707E-03		#502
			202.40		-2.0951E-03		#501
			205.40		-2.0700E-03		#500
			208.40		-2.0640E-03		#499
			211.40		-2.1634E-03		#498
			214.40		-2.1260E-03		#497
			217.40		-2.0378E-03		#496
			220.40		-2.0736E-03		#495
			223.40		-2.0190E-03		#494
			226.40		-1.8827E-03		#493
			229.40		-1.6988E-03		#492
			232.40		-1.5408E-03		#491
			235.40		-1.6125E-03		#490
			238.40		-1.5726E-03		#489
			241.40		-1.5047E-03		#488
			244.40		-1.5709E-03		#487
			247.40		-1.3630E-03		#486
			250.40		-1.2252E-03		#485
			253.40		-1.3075E-03		#484
			256.40		-1.2591E-03		#483
			259.40		-1.2525E-03		#482
			262.40		-1.2364E-03		#481
			265.40		-984.36E-06		#480
			268.40		-716.82E-06		#479
			271.40		-612.25E-06		#478
			274.40		-456.76E-06		#477
			277.40		-338.42E-06		#476
			280.40		-434.47E-06		#475
			283.40		-606.47E-06		#474
			286.40		-888.86E-06		#473
			289.40		-1.1036E-03		#472
			292.40		-1.0986E-03		#471
			295.40		-1.0881E-03		#470
		END_DATA
	END_SCAN  3
	BEGIN_SCAN  4
		TASK_NAME=DOSE
		GROUP_NAME=TR_GL_21.2
		PROGRAM=MultiCheck 3.04.0004
		COMMENT=e12 20x20 U4
		MEAS_DATE=11-Apr-2014 15:05:11
		LINAC=Elekta
		MODALITY=EL
		INPLANE_AXIS_DIR=GUN_TARGET
		CROSSPLANE_AXIS_DIR=LEFT_RIGHT
		DEPTH_AXIS_DIR=UP_DOWN
		ENERGY=12.00
		SSD=1000.00
		WEDGE=None
		FIELD_INPLANE=200.00
		FIELD_CROSSPLANE=200.00
		FIELD_TYPE=RECTANGULAR
		GANTRY=0.00
		GANTRY_UPRIGHT_POSITION=0
		GANTRY_ROTATION=CW
		COLL_ANGLE=0.00
		COLL_OFFSET_INPLANE=0.00
		COLL_OFFSET_CROSSPLANE=0.00
		SCAN_DEVICE=STARCHECKMAXI
		ELECTROMETER=2D_ARRAY_INTERFACE
		DETECTOR=STARCHECKMAXI
		SCAN_CURVETYPE=INPLANE_PROFILE
		SCAN_DEPTH=0.00
		SCAN_OFFAXIS_CROSSPLANE=0.00
		SCAN_ANGLE=0.00
		SCAN_DIAGONAL=SECOND_DIAGONAL
		MEAS_PRESET=TIME_PRESET
		MEAS_TIME=21.200
		MEAS_UNIT=GY
		PRESSURE=1009.50
		TEMPERATURE=21.50
		NORM_TEMPERATURE=20.00
		CORRECTION_FACTOR=1.0000
		CORRECTIONS=AIR_DENSITY_CORR;
		BEGIN_DATA
			-295.40		-742.51E-06		#280
			-292.40		-831.38E-06		#281
			-289.40		-781.26E-06		#282
			-286.40		-739.15E-06		#283
			-283.40		-653.17E-06		#284
			-280.40		-541.50E-06		#285
			-277.40		-497.75E-06		#286
			-274.40		-484.55E-06		#287
			-271.40		-520.36E-06		#288
			-268.40		-718.05E-06		#289
			-265.40		-1.0618E-03		#290
			-262.40		-1.3042E-03		#291
			-259.40		-1.4736E-03		#292
			-256.40		-1.6352E-03		#293
			-253.40		-1.5969E-03		#294
			-250.40		-1.4613E-03		#295
			-247.40		-1.4650E-03		#296
			-244.40		-1.4704E-03		#297
			-241.40		-1.4627E-03		#298
			-238.40		-1.5389E-03		#299
			-235.40		-1.5574E-03		#300
			-232.40		-1.5851E-03		#301
			-229.40		-1.6285E-03		#302
			-226.40		-1.5789E-03		#303
			-223.40		-1.5697E-03		#304
			-220.40		-1.6155E-03		#305
			-217.40		-1.7177E-03		#306
			-214.40		-1.8491E-03		#307
			-211.40		-1.8636E-03		#308
			-208.40		-1.8835E-03		#309
			-205.40		-1.9319E-03		#310
			-202.40		-1.7994E-03		#311
			-199.40		-1.5449E-03		#312
			-196.40		-1.2851E-03		#313
			-193.40		-1.0654E-03		#314
			-190.40		-872.26E-06		#315
			-187.40		-542.91E-06		#316
			-184.40		-71.169E-06		#317
			-181.40		681.13E-06		#318
			-178.40		1.6734E-03		#319
			-175.40		2.5599E-03		#320
			-172.40		3.3047E-03		#321
			-169.40		3.8613E-03		#322
			-166.40		4.2360E-03		#323
			-163.40		4.6138E-03		#324
			-160.40		4.9643E-03		#325
			-157.40		5.1480E-03		#326
			-154.40		5.2955E-03		#327
			-151.40		5.3764E-03		#328
			-148.40		5.1586E-03		#329
			-145.40		4.8318E-03		#330
			-142.40		4.4884E-03		#331
			-139.40		4.1950E-03		#332
			-136.40		4.3056E-03		#333
			-133.40		4.6446E-03		#334
			-130.40		5.0085E-03		#335
			-127.40		5.4539E-03		#336
			-124.40		5.9355E-03		#337
			-121.40		6.4541E-03		#338
			-118.40		6.9228E-03		#339
			-115.40		7.3518E-03		#340
			-112.40		7.8363E-03		#341
			-109.40		8.4576E-03		#342
			-106.40		9.1596E-03		#343
			-103.40		9.9456E-03		#344
			-100.40		11.352E-03		#345
			-97.40		14.266E-03		#346
			-94.40		19.963E-03		#347
			-91.40		29.988E-03		#348
			-88.40		45.957E-03		#349
			-85.40		68.959E-03		#350
			-82.40		99.053E-03		#351
			-79.40		135.43E-03		#352
			-76.40		176.29E-03		#353
			-73.40		219.68E-03		#354
			-70.40		264.03E-03		#355
			-67.40		308.04E-03		#356
			-64.40		351.15E-03		#357
			-61.40		392.83E-03		#358
			-58.40		432.23E-03		#359
			-55.40		468.51E-03		#360
			-52.40		500.56E-03		#361
			-49.40		526.81E-03		#362
			-46.40		545.91E-03		#363
			-43.40		556.94E-03		#364
			-40.40		568.12E-03		#365
			-37.40		569.41E-03		#366
			-34.40		545.33E-03		#367
			-31.40		522.30E-03		#368
			-28.40		514.57E-03		#369
			-25.40		510.89E-03		#370
			-22.40		508.49E-03		#371
			-19.40		506.89E-03		#372
			-16.40		506.07E-03		#373
			-13.40		505.74E-03		#374
			13.40		504.26E-03		#375
			16.40		504.42E-03		#376
			19.40		505.31E-03		#377
			22.40		507.09E-03		#378
			25.40		509.76E-03		#379
			28.40		513.93E-03		#380
			31.40		521.87E-03		#381
			34.40		544.50E-03		#382
			37.40		567.66E-03		#383
			40.40		564.56E-03		#384
			43.40		551.67E-03		#385
			46.40		540.07E-03		#386
			49.40		520.76E-03		#387
			52.40		494.40E-03		#388
			55.40		462.62E-03		#389
			58.40		426.71E-03		#390
			61.40		387.73E-03		#391
			64.40		346.54E-03		#392
			67.40		303.97E-03		#393
			70.40		260.84E-03		#394
			73.40		217.51E-03		#395
			76.40		175.00E-03		#396
			79.40		135.11E-03		#397
			82.40		99.418E-03		#398
			85.40		69.326E-03		#399
			88.40		46.097E-03		#400
			91.40		29.732E-03		#401
			94.40		19.298E-03		#402
			97.40		13.541E-03		#403
			100.40		10.601E-03		#404
			103.40		9.0335E-03		#405
			106.40		8.3047E-03		#406
			109.40		7.7789E-03		#407
			112.40		7.1321E-03		#408
			115.40		6.5903E-03		#409
			118.40		6.1367E-03		#410
			121.40		5.7875E-03		#411
			124.40		5.4497E-03		#412
			127.40		4.9292E-03		#413
			130.40		4.3910E-03		#414
			133.40		4.0588E-03		#415
			136.40		3.8986E-03		#416
			139.40		3.9080E-03		#417
			142.40		4.1156E-03		#418
			145.40		4.3359E-03		#419
			148.40		4.5350E-03		#420
			151.40		4.7905E-03		#421
			154.40		5.0097E-03		#422
			157.40		4.9889E-03		#423
			160.40		4.6425E-03		#424
			163.40		4.1632E-03		#425
			166.40		3.6500E-03		#426
			169.40		3.2446E-03		#427
			172.40		2.9192E-03		#428
			175.40		2.3314E-03		#429
			178.40		1.5381E-03		#430
			181.40		803.15E-06		#431
			184.40		99.576E-06		#432
			187.40		-492.17E-06		#433
			190.40		-944.45E-06		#434
			193.40		-1.4339E-03		#435
			196.40		-1.7755E-03		#436
			199.40		-1.8625E-03		#437
			202.40		-1.9435E-03		#438
			205.40		-2.0500E-03		#439
			208.40		-2.0761E-03		#440
			211.40		-2.1019E-03		#441
			214.40		-2.1078E-03		#442
			217.40		-1.9790E-03		#443
			220.40		-1.8404E-03		#444
			223.40		-1.7444E-03		#445
			226.40		-1.6116E-03		#446
			229.40		-1.5669E-03		#447
			232.40		-1.6173E-03		#448
			235.40		-1.6405E-03		#449
			238.40		-1.5527E-03		#450
			241.40		-1.4477E-03		#451
			244.40		-1.4038E-03		#452
			247.40		-1.4130E-03		#453
			250.40		-1.4731E-03		#454
			253.40		-1.3887E-03		#455
			256.40		-1.2758E-03		#456
			259.40		-1.2306E-03		#457
			262.40		-1.1543E-03		#458
			265.40		-1.1713E-03		#459
			268.40		-1.1045E-03		#460
			271.40		-803.03E-06		#461
			274.40		-589.16E-06		#462
			277.40		-552.93E-06		#463
			280.40		-544.87E-06		#464
			283.40		-594.88E-06		#465
			286.40		-718.50E-06		#466
			289.40		-829.22E-06		#467
			292.40		-903.90E-06		#468
			295.40		-973.67E-06		#469
		END_DATA
	END_SCAN  4
END_SCAN_DATA
